M2_min P(M2_min)
0 -nan
0.0015 0.0623543
0.003 0.124108
0.0045 0.185336
0.006 0.246052
0.0075 0.306279
0.009 0.366021
0.0105 0.42529
0.012 0.484086
0.0135 0.542433
0.015 0.600328
0.0165 0.65778
0.018 0.714795
0.0195 0.771379
0.021 0.827539
0.0225 0.883266
0.024 0.938598
0.0255 0.993523
0.027 1.04805
0.0285 1.10217
0.03 1.15591
0.0315 1.20925
0.033 1.26226
0.0345 1.31484
0.036 1.36706
0.0375 1.41893
0.039 1.47043
0.0405 1.52157
0.042 1.57237
0.0435 1.62281
0.045 1.67289
0.0465 1.72266
0.048 1.77209
0.0495 1.82119
0.051 1.86996
0.0525 1.91842
0.054 1.96655
0.0555 2.01437
0.057 2.06187
0.0585 2.10907
0.06 2.15596
0.0615 2.20256
0.063 2.24885
0.0645 2.29485
0.066 2.34056
0.0675 2.38598
0.069 2.43112
0.0705 2.47597
0.072 2.52055
0.0735 2.56485
0.075 2.60888
0.0765 2.65264
0.078 2.69613
0.0795 2.73936
0.081 2.78232
0.0825 2.82503
0.084 2.86748
0.0855 2.90968
0.087 2.95163
0.0885 2.99332
0.09 3.03478
0.0915 3.07598
0.093 3.11695
0.0945 3.15768
0.096 3.19817
0.0975 3.23842
0.099 3.27845
0.1005 3.31824
0.102 3.3578
0.1035 3.39714
0.105 3.43626
0.1065 3.47515
0.108 3.51382
0.1095 3.55227
0.111 3.59051
0.1125 3.62853
0.114 3.66634
0.1155 3.70394
0.117 3.74133
0.1185 3.77851
0.12 3.81549
0.1215 3.85226
0.123 3.88883
0.1245 3.9252
0.126 3.96137
0.1275 3.99734
0.129 4.03312
0.1305 4.0687
0.132 4.10409
0.1335 4.13928
0.135 4.17429
0.1365 4.2091
0.138 4.24373
0.1395 4.27817
0.141 4.31243
0.1425 4.3465
0.144 4.38039
0.1455 4.4141
0.147 4.44762
0.1485 4.48097
0.15 4.51414
0.1515 4.54713
0.153 4.57995
0.1545 4.61259
0.156 4.64506
0.1575 4.67736
0.159 4.70948
0.1605 4.74143
0.162 4.77322
0.1635 4.80483
0.165 4.83628
0.1665 4.86756
0.168 4.89867
0.1695 4.92962
0.171 4.9604
0.1725 4.99102
0.174 5.02148
0.1755 5.05177
0.177 5.08191
0.1785 5.11188
0.18 5.14169
0.1815 5.17148
0.183 5.20095
0.1845 5.23025
0.186 5.2594
0.1875 5.28839
0.189 5.31722
0.1905 5.34595
0.192 5.37451
0.1935 5.40291
0.195 5.43116
0.1965 5.45925
0.198 5.48719
0.1995 5.51498
0.201 5.54262
0.2025 5.5701
0.204 5.59744
0.2055 5.62462
0.207 5.65165
0.2085 5.67853
0.21 5.70527
0.2115 5.73185
0.213 5.75829
0.2145 5.78457
0.216 5.81071
0.2175 5.8367
0.219 5.86254
0.2205 5.88824
0.222 5.91379
0.2235 5.93919
0.225 5.96444
0.2265 5.98955
0.228 6.01451
0.2295 6.03932
0.231 6.06399
0.2325 6.08851
0.234 6.11289
0.2355 6.13712
0.237 6.1612
0.2385 6.18514
0.24 6.20894
0.2415 6.23258
0.243 6.25609
0.2445 6.27944
0.246 6.30265
0.2475 6.32572
0.249 6.34864
0.2505 6.37141
0.252 6.39404
0.2535 6.41653
0.255 6.43886
0.2565 6.46106
0.258 6.4831
0.2595 6.505
0.261 6.52676
0.2625 6.54836
0.264 6.56982
0.2655 6.59114
0.267 6.61231
0.2685 6.63333
0.27 6.6542
0.2715 6.67493
0.273 6.69551
0.2745 6.71594
0.276 6.73622
0.2775 6.75636
0.279 6.77635
0.2805 6.79618
0.282 6.81587
0.2835 6.83541
0.285 6.8548
0.2865 6.87404
0.288 6.89313
0.2895 6.91207
0.291 6.93086
0.2925 6.9495
0.294 6.96799
0.2955 6.98632
0.297 7.0045
0.2985 7.02253
0.3 7.04041
0.3015 7.05813
0.303 7.0757
0.3045 7.09311
0.306 7.11037
0.3075 7.12748
0.309 7.14443
0.3105 7.16122
0.312 7.17786
0.3135 7.19433
0.315 7.21066
0.3165 7.22682
0.318 7.24282
0.3195 7.25867
0.321 7.27436
0.3225 7.28988
0.324 7.30525
0.3255 7.32045
0.327 7.3355
0.3285 7.35038
0.33 7.3651
0.3315 7.37965
0.333 7.39404
0.3345 7.40827
0.336 7.42233
0.3375 7.43623
0.339 7.44996
0.3405 7.46352
0.342 7.47692
0.3435 7.49014
0.345 7.5032
0.3465 7.51609
0.348 7.52882
0.3495 7.54137
0.351 7.55374
0.3525 7.56595
0.354 7.57799
0.3555 7.58985
0.357 7.60154
0.3585 7.61306
0.36 7.6244
0.3615 7.63556
0.363 7.64655
0.3645 7.65736
0.366 7.668
0.3675 7.67845
0.369 7.68873
0.3705 7.69883
0.372 7.70875
0.3735 7.71849
0.375 7.72804
0.3765 7.73742
0.378 7.74661
0.3795 7.75562
0.381 7.76445
0.3825 7.77309
0.384 7.78154
0.3855 7.78981
0.387 7.79789
0.3885 7.80579
0.39 7.8135
0.3915 7.82102
0.393 7.82835
0.3945 7.83549
0.396 7.84244
0.3975 7.8492
0.399 7.85576
0.4005 7.86214
0.402 7.86832
0.4035 7.87431
0.405 7.8801
0.4065 7.8857
0.408 7.89111
0.4095 7.89631
0.411 7.90132
0.4125 7.90614
0.414 7.91075
0.4155 7.91517
0.417 7.91939
0.4185 7.92341
0.42 7.92722
0.4215 7.93084
0.423 7.93425
0.4245 7.93747
0.426 7.94048
0.4275 7.94329
0.429 7.94589
0.4305 7.94829
0.432 7.95048
0.4335 7.95247
0.435 7.95426
0.4365 7.95583
0.438 7.95721
0.4395 7.95837
0.441 7.95932
0.4425 7.96007
0.444 7.96061
0.4455 7.96094
0.447 7.96106
0.4485 7.96097
0.45 7.96067
0.4515 7.96016
0.453 7.95944
0.4545 7.9585
0.456 7.95736
0.4575 7.956
0.459 7.95443
0.4605 7.95264
0.462 7.95065
0.4635 7.94844
0.465 7.94601
0.4665 7.94337
0.468 7.94052
0.4695 7.93745
0.471 7.93417
0.4725 7.93067
0.474 7.9269
0.4755 7.92301
0.477 7.9189
0.4785 7.91458
0.48 7.91003
0.4815 7.90528
0.483 7.9003
0.4845 7.89511
0.486 7.88946
0.4875 7.8838
0.489 7.87792
0.4905 7.87183
0.492 7.86551
0.4935 7.85898
0.495 7.85224
0.4965 7.84528
0.498 7.83809
0.4995 7.8307
0.501 7.82308
0.5025 7.81525
0.504 7.8072
0.5055 7.79894
0.507 7.79046
0.5085 7.78176
0.51 7.77285
0.5115 7.76372
0.513 7.75437
0.5145 7.74481
0.516 7.73504
0.5175 7.72505
0.519 7.71484
0.5205 7.70442
0.522 7.69378
0.5235 7.68293
0.525 7.67187
0.5265 7.6606
0.528 7.64911
0.5295 7.63741
0.531 7.6255
0.5325 7.61337
0.534 7.60104
0.5355 7.58849
0.537 7.57574
0.5385 7.56277
0.54 7.5496
0.5415 7.53622
0.543 7.52263
0.5445 7.50883
0.546 7.49483
0.5475 7.48062
0.549 7.4662
0.5505 7.45159
0.552 7.43676
0.5535 7.42174
0.555 7.40651
0.5565 7.39108
0.558 7.37545
0.5595 7.35962
0.561 7.34359
0.5625 7.32736
0.564 7.31094
0.5655 7.29432
0.567 7.2775
0.5685 7.26049
0.57 7.24329
0.5715 7.22589
0.573 7.2083
0.5745 7.19052
0.576 7.17255
0.5775 7.15439
0.579 7.13605
0.5805 7.11752
0.582 7.0988
0.5835 7.0799
0.585 7.06082
0.5865 7.04155
0.588 7.02211
0.5895 7.00248
0.591 6.98268
0.5925 6.9627
0.594 6.94254
0.5955 6.92221
0.597 6.90171
0.5985 6.88103
0.6 6.86019
0.6015 6.83918
0.603 6.818
0.6045 6.79665
0.606 6.77514
0.6075 6.75346
0.609 6.73163
0.6105 6.70963
0.612 6.68747
0.6135 6.66516
0.615 6.64269
0.6165 6.62007
0.618 6.59729
0.6195 6.57437
0.621 6.55129
0.6225 6.52807
0.624 6.5047
0.6255 6.48119
0.627 6.45753
0.6285 6.43373
0.63 6.40979
0.6315 6.38572
0.633 6.36151
0.6345 6.33716
0.636 6.31268
0.6375 6.28807
0.639 6.26334
0.6405 6.23847
0.642 6.21348
0.6435 6.18837
0.645 6.16313
0.6465 6.13778
0.648 6.1123
0.6495 6.08671
0.651 6.06101
0.6525 6.03519
0.654 6.00926
0.6555 5.98323
0.657 5.95709
0.6585 5.93084
0.66 5.90449
0.6615 5.87804
0.663 5.85149
0.6645 5.82484
0.666 5.7981
0.6675 5.77127
0.669 5.74435
0.6705 5.71733
0.672 5.69023
0.6735 5.66305
0.675 5.63578
0.6765 5.60843
0.678 5.581
0.6795 5.5535
0.681 5.52592
0.6825 5.49827
0.684 5.47055
0.6855 5.44276
0.687 5.4149
0.6885 5.38698
0.69 5.359
0.6915 5.33095
0.693 5.30285
0.6945 5.2747
0.696 5.24649
0.6975 5.21822
0.699 5.18991
0.7005 5.16155
0.702 5.13315
0.7035 5.1047
0.705 5.07621
0.7065 5.04768
0.708 5.01912
0.7095 4.99052
0.711 4.96189
0.7125 4.93322
0.714 4.90453
0.7155 4.87581
0.717 4.84707
0.7185 4.81831
0.72 4.78952
0.7215 4.76072
0.723 4.7319
0.7245 4.70307
0.726 4.67422
0.7275 4.64537
0.729 4.6165
0.7305 4.58764
0.732 4.55876
0.7335 4.52989
0.735 4.50102
0.7365 4.47215
0.738 4.44328
0.7395 4.41442
0.741 4.38557
0.7425 4.35673
0.744 4.32791
0.7455 4.2991
0.747 4.2703
0.7485 4.24152
0.75 4.21277
0.7515 4.18405
0.753 4.15533
0.7545 4.12663
0.756 4.09797
0.7575 4.06933
0.759 4.04073
0.7605 4.01216
0.762 3.98363
0.7635 3.95514
0.765 3.92668
0.7665 3.89827
0.768 3.8699
0.7695 3.84158
0.771 3.8133
0.7725 3.78519
0.774 3.75702
0.7755 3.72891
0.777 3.70084
0.7785 3.67284
0.78 3.64489
0.7815 3.617
0.783 3.58917
0.7845 3.5614
0.786 3.5337
0.7875 3.50607
0.789 3.4785
0.7905 3.451
0.792 3.42357
0.7935 3.39622
0.795 3.36893
0.7965 3.34173
0.798 3.3146
0.7995 3.28755
0.801 3.26058
0.8025 3.23369
0.804 3.20688
0.8055 3.18016
0.807 3.15352
0.8085 3.12698
0.81 3.10052
0.8115 3.07415
0.813 3.04787
0.8145 3.02168
0.816 2.99559
0.8175 2.9696
0.819 2.9437
0.8205 2.9179
0.822 2.89219
0.8235 2.86659
0.825 2.84109
0.8265 2.8157
0.828 2.7904
0.8295 2.76521
0.831 2.74013
0.8325 2.71516
0.834 2.69029
0.8355 2.66554
0.837 2.64089
0.8385 2.61636
0.84 2.59193
0.8415 2.56763
0.843 2.54343
0.8445 2.51935
0.846 2.49539
0.8475 2.47155
0.849 2.44782
0.8505 2.42421
0.852 2.40073
0.8535 2.37736
0.855 2.35412
0.8565 2.33099
0.858 2.30799
0.8595 2.28512
0.861 2.26237
0.8625 2.23974
0.864 2.21724
0.8655 2.19487
0.867 2.17262
0.8685 2.1505
0.87 2.12852
0.8715 2.10665
0.873 2.08492
0.8745 2.06332
0.876 2.04185
0.8775 2.02051
0.879 1.99931
0.8805 1.97823
0.882 1.95729
0.8835 1.93648
0.885 1.9158
0.8865 1.89526
0.888 1.87485
0.8895 1.85458
0.891 1.83444
0.8925 1.81443
0.894 1.79456
0.8955 1.77483
0.897 1.75523
0.8985 1.73577
0.9 1.71645
0.9015 1.69726
0.903 1.67821
0.9045 1.65929
0.906 1.64051
0.9075 1.62187
0.909 1.60337
0.9105 1.585
0.912 1.56677
0.9135 1.54868
0.915 1.53073
0.9165 1.51291
0.918 1.49523
0.9195 1.47769
0.921 1.46029
0.9225 1.44302
0.924 1.42589
0.9255 1.4089
0.927 1.39204
0.9285 1.37532
0.93 1.35874
0.9315 1.3423
0.933 1.32599
0.9345 1.30982
0.936 1.29378
0.9375 1.27788
0.939 1.26212
0.9405 1.24649
0.942 1.23099
0.9435 1.21563
0.945 1.20041
0.9465 1.18532
0.948 1.17036
0.9495 1.15554
0.951 1.14085
0.9525 1.1263
0.954 1.11188
0.9555 1.09759
0.957 1.08343
0.9585 1.0694
0.96 1.05551
0.9615 1.04174
0.963 1.02811
0.9645 1.0146
0.966 1.00123
0.9675 0.987981
0.969 0.974864
0.9705 0.961874
0.972 0.949012
0.9735 0.936276
0.975 0.923667
0.9765 0.911185
0.978 0.898827
0.9795 0.886594
0.981 0.874486
0.9825 0.862501
0.984 0.85064
0.9855 0.838901
0.987 0.827284
0.9885 0.815789
0.99 0.804414
0.9915 0.793159
0.993 0.782024
0.9945 0.771008
0.996 0.76011
0.9975 0.74933
0.999 0.738667
1.0005 0.72812
1.002 0.717689
1.0035 0.707372
1.005 0.697171
1.0065 0.687082
1.008 0.677107
1.0095 0.667244
1.011 0.657492
1.0125 0.647852
1.014 0.638321
1.0155 0.6289
1.017 0.619587
1.0185 0.610383
1.02 0.601286
1.0215 0.592295
1.023 0.58341
1.0245 0.574631
1.026 0.565955
1.0275 0.557383
1.029 0.548914
1.0305 0.540547
1.032 0.532282
1.0335 0.524115
1.035 0.516051
1.0365 0.508086
1.038 0.500219
1.0395 0.49245
1.041 0.484777
1.0425 0.4772
1.044 0.469719
1.0455 0.462332
1.047 0.455038
1.0485 0.447838
1.05 0.440729
1.0515 0.433712
1.053 0.426786
1.0545 0.419949
1.056 0.413201
1.0575 0.406542
1.059 0.399969
1.0605 0.393484
1.062 0.38707
1.0635 0.380755
1.065 0.374525
1.0665 0.368378
1.068 0.362314
1.0695 0.356332
1.071 0.350431
1.0725 0.34461
1.074 0.33887
1.0755 0.333208
1.077 0.327625
1.0785 0.322119
1.08 0.31669
1.0815 0.311336
1.083 0.306058
1.0845 0.300854
1.086 0.295724
1.0875 0.290667
1.089 0.285682
1.0905 0.280768
1.092 0.275925
1.0935 0.271152
1.095 0.266448
1.0965 0.261813
1.098 0.257245
1.0995 0.252744
1.101 0.24831
1.1025 0.243941
1.104 0.239637
1.1055 0.235396
1.107 0.23122
1.1085 0.227106
1.11 0.223053
1.1115 0.219062
1.113 0.215132
1.1145 0.211261
1.116 0.20745
1.1175 0.203697
1.119 0.200002
1.1205 0.196364
1.122 0.192782
1.1235 0.189256
1.125 0.185785
1.1265 0.182369
1.128 0.179006
1.1295 0.175696
1.131 0.172439
1.1325 0.169234
1.134 0.166079
1.1355 0.162976
1.137 0.159922
1.1385 0.156917
1.14 0.153961
1.1415 0.151053
1.143 0.148192
1.1445 0.145378
1.146 0.142611
1.1475 0.139889
1.149 0.137211
1.1505 0.134579
1.152 0.131989
1.1535 0.129444
1.155 0.12694
1.1565 0.124479
1.158 0.12206
1.1595 0.119681
1.161 0.117342
1.1625 0.115044
1.164 0.112784
1.1655 0.110564
1.167 0.108381
1.1685 0.106236
1.17 0.104129
1.1715 0.102057
1.173 0.100022
1.1745 0.0980229
1.176 0.0960584
1.1775 0.0941284
1.179 0.0922325
1.1805 0.0903701
1.182 0.0885408
1.1835 0.0867441
1.185 0.0849794
1.1865 0.0832464
1.188 0.0815445
1.1895 0.0798733
1.191 0.0782323
1.1925 0.0766211
1.194 0.0750392
1.1955 0.0734861
1.197 0.0719615
1.1985 0.0704649
1.2 0.0689959
1.2015 0.067554
1.203 0.0661388
1.2045 0.0647499
1.206 0.063387
1.2075 0.0620495
1.209 0.060737
1.2105 0.0594493
1.212 0.0581859
1.2135 0.0569463
1.215 0.0557303
1.2165 0.0545375
1.218 0.0533674
1.2195 0.0522197
1.221 0.051094
1.2225 0.04999
1.224 0.0489073
1.2255 0.0478456
1.227 0.0468045
1.2285 0.0457837
1.23 0.0447829
1.2315 0.0438016
1.233 0.0428396
1.2345 0.0418966
1.236 0.0409722
1.2375 0.0400661
1.239 0.039178
1.2405 0.0383076
1.242 0.0374546
1.2435 0.0366187
1.245 0.0357996
1.2465 0.0349969
1.248 0.0342105
1.2495 0.0334401
1.251 0.0326852
1.2525 0.0319458
1.254 0.0312214
1.2555 0.0305119
1.257 0.0298169
1.2585 0.0291363
1.26 0.0284697
1.2615 0.0278169
1.263 0.0271777
1.2645 0.0265517
1.266 0.0259388
1.2675 0.0253388
1.269 0.0247513
1.2705 0.0241762
1.272 0.0236132
1.2735 0.0230621
1.275 0.0225228
1.2765 0.0219948
1.278 0.0214781
1.2795 0.0209725
1.281 0.0204777
1.2825 0.0199935
1.284 0.0195197
1.2855 0.0190562
1.287 0.0186027
1.2885 0.0181591
1.29 0.0177251
1.2915 0.0173005
1.293 0.0168853
1.2945 0.0164791
1.296 0.0160819
1.2975 0.0156934
1.299 0.0153135
1.3005 0.014942
1.302 0.0145788
1.3035 0.0142236
1.305 0.0138764
1.3065 0.0135369
1.308 0.013205
1.3095 0.0128806
1.311 0.0125636
1.3125 0.0122536
1.314 0.0119507
1.3155 0.0116547
1.317 0.0113654
1.3185 0.0110827
1.32 0.0108064
1.3215 0.0105365
1.323 0.0102728
1.3245 0.0100151
1.326 0.00976345
1.3275 0.00951758
1.329 0.00927741
1.3305 0.00904283
1.332 0.00881371
1.3335 0.00858994
1.335 0.00837141
1.3365 0.00815802
1.338 0.00794964
1.3395 0.00774617
1.341 0.00754752
1.3425 0.00735357
1.344 0.00716422
1.3455 0.00697938
1.347 0.00679896
1.3485 0.00662284
1.35 0.00645095
1.3515 0.00628318
1.353 0.00611946
1.3545 0.00595968
1.356 0.00580377
1.3575 0.00565152
1.359 0.00550307
1.3605 0.00535823
1.362 0.00521693
1.3635 0.00507909
1.365 0.00494463
1.3665 0.00481347
1.368 0.00468554
1.3695 0.00456077
1.371 0.00443909
1.3725 0.00432042
1.374 0.0042047
1.3755 0.00409214
1.377 0.00398213
1.3785 0.00387487
1.38 0.0037703
1.3815 0.00366836
1.383 0.00356899
1.3845 0.00347212
1.386 0.0033777
1.3875 0.00328567
1.389 0.00319599
1.3905 0.00310858
1.392 0.00302341
1.3935 0.00294041
1.395 0.00285954
1.3965 0.00278074
1.398 0.00270397
1.3995 0.00262919
1.401 0.00255633
1.4025 0.00248536
1.404 0.00241623
1.4055 0.0023489
1.407 0.00228333
1.4085 0.00221947
1.41 0.00215727
1.4115 0.00209671
1.413 0.00203774
1.4145 0.00198033
1.416 0.00192443
1.4175 0.00187
1.419 0.00181702
1.4205 0.00176545
1.422 0.00171525
1.4235 0.00166639
1.425 0.00161883
1.4265 0.00157254
1.428 0.0015275
1.4295 0.00148367
1.431 0.00144102
1.4325 0.00139952
1.434 0.00135914
1.4355 0.00131986
1.437 0.00128165
1.4385 0.00124447
1.44 0.00120831
1.4415 0.00117314
1.443 0.00113893
1.4445 0.00110565
1.446 0.0010733
1.4475 0.00104183
1.449 0.00101123
1.4505 0.000981481
1.452 0.000952554
1.4535 0.00092443
1.455 0.000897088
1.4565 0.000870508
1.458 0.000844671
1.4595 0.000819556
1.461 0.000795146
1.4625 0.000771421
1.464 0.000748365
1.4655 0.000725958
1.467 0.000704185
1.4685 0.000683028
1.47 0.000662471
1.4715 0.000642498
1.473 0.000623095
1.4745 0.000604244
1.476 0.000585933
1.4775 0.000568146
1.479 0.000550869
1.4805 0.00053409
1.482 0.000517793
1.4835 0.000501967
1.485 0.000486598
1.4865 0.000471675
1.488 0.000457185
1.4895 0.000443116
1.491 0.000429457
1.4925 0.000416197
1.494 0.000403324
1.4955 0.000390829
1.497 0.0003787
1.4985 0.000366928
